periapsis (km) Flight Path Angle (deg)
  1.00  89.19388573
  2.00  88.85987925
  3.00  88.60351227
  4.00  88.38732228
  5.00  88.19680000
  6.00  88.02450493
  7.00  87.86601752
  8.00  87.71845847
  9.00  87.57982798
 10.00  87.44867019
 11.00  87.32388610
 12.00  87.20462203
 13.00  87.09019911
 14.00  86.98006701
 15.00  86.87377219
 16.00  86.77093567
 17.00  86.67123689
 18.00  86.57440188
 19.00  86.48019425
 20.00  86.38840838
 21.00  86.29886407
 22.00  86.21140237
 23.00  86.12588221
 24.00  86.04217773
 25.00  85.96017604
 26.00  85.87977546
 27.00  85.80088402
 28.00  85.72341818
 29.00  85.64730181
 30.00  85.57246531
 31.00  85.49884483
 32.00  85.42638163
 33.00  85.35502154
 34.00  85.28471446
 35.00  85.21541398
 36.00  85.14707695
 37.00  85.07966322
 38.00  85.01313533
 39.00  84.94745829
 40.00  84.88259933
 41.00  84.81852771
 42.00  84.75521458
 43.00  84.69263277
 44.00  84.63075671
 45.00  84.56956226
 46.00  84.50902663
 47.00  84.44912825
 48.00  84.38984670
 49.00  84.33116263
 50.00  84.27305765
 51.00  84.21551431
 52.00  84.15851600
 53.00  84.10204691
 54.00  84.04609198
 55.00  83.99063684
 56.00  83.93566776
 57.00  83.88117164
 58.00  83.82713595
 59.00  83.77354868
 60.00  83.72039836
 61.00  83.66767396
 62.00  83.61536494
 63.00  83.56346116
 64.00  83.51195288
 65.00  83.46083076
 66.00  83.41008579
 67.00  83.35970932
 68.00  83.30969302
 69.00  83.26002887
 70.00  83.21070913
 71.00  83.16172634
 72.00  83.11307331
 73.00  83.06474308
 74.00  83.01672896
 75.00  82.96902445
 76.00  82.92162328
 77.00  82.87451941
 78.00  82.82770696
 79.00  82.78118025
 80.00  82.73493380
 81.00  82.68896227
 82.00  82.64326051
 83.00  82.59782351
 84.00  82.55264642
 85.00  82.50772453
 86.00  82.46305327
 87.00  82.41862821
 88.00  82.37444503
 89.00  82.33049955
 90.00  82.28678770
 91.00  82.24330553
 92.00  82.20004918
 93.00  82.15701491
 94.00  82.11419908
 95.00  82.07159815
 96.00  82.02920866
 97.00  81.98702725
 98.00  81.94505065
 99.00  81.90327567
100.00  81.86169919
101.00  81.82031818
102.00  81.77912968
103.00  81.73813081
104.00  81.69731876
105.00  81.65669077
106.00  81.61624417
107.00  81.57597632
108.00  81.53588469
109.00  81.49596677
110.00  81.45622011
111.00  81.41664234
112.00  81.37723112
113.00  81.33798418
114.00  81.29889928
115.00  81.25997424
116.00  81.22120694
117.00  81.18259528
118.00  81.14413723
119.00  81.10583078
120.00  81.06767399
121.00  81.02966493
122.00  80.99180173
123.00  80.95408255
124.00  80.91650560
125.00  80.87906910
126.00  80.84177133
127.00  80.80461061
128.00  80.76758526
129.00  80.73069365
130.00  80.69393421
131.00  80.65730535
132.00  80.62080554
133.00  80.58443328
134.00  80.54818709
135.00  80.51206551
136.00  80.47606713
137.00  80.44019055
138.00  80.40443439
139.00  80.36879732
140.00  80.33327800
141.00  80.29787514
142.00  80.26258747
143.00  80.22741372
144.00  80.19235267
145.00  80.15740312
146.00  80.12256386
147.00  80.08783374
148.00  80.05321160
149.00  80.01869632
150.00  79.98428678
151.00  79.94998189
152.00  79.91578059
153.00  79.88168181
154.00  79.84768453
155.00  79.81378770
156.00  79.77999034
157.00  79.74629145
158.00  79.71269006
159.00  79.67918522
160.00  79.64577597
161.00  79.61246140
162.00  79.57924058
163.00  79.54611263
164.00  79.51307666
165.00  79.48013179
166.00  79.44727716
167.00  79.41451194
168.00  79.38183528
169.00  79.34924637
170.00  79.31674441
171.00  79.28432859
172.00  79.25199812
173.00  79.21975225
174.00  79.18759020
175.00  79.15551123
176.00  79.12351459
177.00  79.09159955
178.00  79.05976541
179.00  79.02801144
180.00  78.99633695
181.00  78.96474125
182.00  78.93322365
183.00  78.90178350
184.00  78.87042013
185.00  78.83913288
186.00  78.80792112
187.00  78.77678421
188.00  78.74572151
189.00  78.71473243
190.00  78.68381634
191.00  78.65297264
192.00  78.62220075
193.00  78.59150007
194.00  78.56087002
195.00  78.53031005
196.00  78.49981957
197.00  78.46939805
198.00  78.43904492
199.00  78.40875965
200.00  78.37854170
201.00  78.34839055
202.00  78.31830566
203.00  78.28828653
204.00  78.25833265
205.00  78.22844351
206.00  78.19861862
207.00  78.16885748
208.00  78.13915962
209.00  78.10952455
210.00  78.07995181
211.00  78.05044091
212.00  78.02099141
213.00  77.99160285
214.00  77.96227477
215.00  77.93300673
216.00  77.90379829
217.00  77.87464901
218.00  77.84555847
219.00  77.81652623
220.00  77.78755189
221.00  77.75863501
222.00  77.72977520
223.00  77.70097205
224.00  77.67222515
225.00  77.64353410
226.00  77.61489852
227.00  77.58631802
228.00  77.55779221
229.00  77.52932071
230.00  77.50090315
231.00  77.47253915
232.00  77.44422835
233.00  77.41597039
234.00  77.38776490
235.00  77.35961153
236.00  77.33150993
237.00  77.30345975
238.00  77.27546064
239.00  77.24751227
240.00  77.21961429
241.00  77.19176638
242.00  77.16396820
243.00  77.13621943
244.00  77.10851974
245.00  77.08086882
246.00  77.05326634
247.00  77.02571199
248.00  76.99820546
249.00  76.97074646
250.00  76.94333466
251.00  76.91596977
252.00  76.88865149
253.00  76.86137953
254.00  76.83415360
255.00  76.80697340
256.00  76.77983865
257.00  76.75274907
258.00  76.72570437
259.00  76.69870428
260.00  76.67174853
261.00  76.64483683
262.00  76.61796892
263.00  76.59114453
264.00  76.56436339
265.00  76.53762526
266.00  76.51092985
267.00  76.48427693
268.00  76.45766622
269.00  76.43109749
270.00  76.40457047
271.00  76.37808493
272.00  76.35164061
273.00  76.32523727
274.00  76.29887467
275.00  76.27255258
276.00  76.24627075
277.00  76.22002895
278.00  76.19382695
279.00  76.16766452
280.00  76.14154143
281.00  76.11545745
282.00  76.08941237
283.00  76.06340595
284.00  76.03743797
285.00  76.01150823
286.00  75.98561650
287.00  75.95976256
288.00  75.93394622
289.00  75.90816724
290.00  75.88242544
291.00  75.85672059
292.00  75.83105250
293.00  75.80542095
294.00  75.77982576
295.00  75.75426671
296.00  75.72874362
297.00  75.70325628
298.00  75.67780449
299.00  75.65238807
300.00  75.62700683
301.00  75.60166057
302.00  75.57634911
303.00  75.55107225
304.00  75.52582981
305.00  75.50062162
306.00  75.47544748
307.00  75.45030722
308.00  75.42520065
309.00  75.40012760
310.00  75.37508790
311.00  75.35008136
312.00  75.32510782
313.00  75.30016710
314.00  75.27525902
315.00  75.25038343
316.00  75.22554016
317.00  75.20072902
318.00  75.17594987
319.00  75.15120254
320.00  75.12648686
321.00  75.10180268
322.00  75.07714982
323.00  75.05252814
324.00  75.02793748
325.00  75.00337767
326.00  74.97884857
327.00  74.95435001
328.00  74.92988186
329.00  74.90544395
330.00  74.88103613
331.00  74.85665825
332.00  74.83231018
333.00  74.80799175
334.00  74.78370282
335.00  74.75944326
336.00  74.73521290
337.00  74.71101162
338.00  74.68683927
339.00  74.66269571
340.00  74.63858079
341.00  74.61449439
342.00  74.59043635
343.00  74.56640656
344.00  74.54240486
345.00  74.51843113
346.00  74.49448524
347.00  74.47056704
348.00  74.44667641
349.00  74.42281321
350.00  74.39897733
351.00  74.37516862
352.00  74.35138697
353.00  74.32763223
354.00  74.30390430
355.00  74.28020303
356.00  74.25652832
357.00  74.23288002
358.00  74.20925803
359.00  74.18566222
360.00  74.16209247
361.00  74.13854866
362.00  74.11503066
363.00  74.09153837
364.00  74.06807166
365.00  74.04463042
366.00  74.02121453
367.00  73.99782388
368.00  73.97445835
369.00  73.95111782
370.00  73.92780219
371.00  73.90451134
372.00  73.88124517
373.00  73.85800356
374.00  73.83478639
375.00  73.81159357
376.00  73.78842499
377.00  73.76528053
378.00  73.74216009
379.00  73.71906356
380.00  73.69599084
381.00  73.67294183
382.00  73.64991641
383.00  73.62691449
384.00  73.60393596
385.00  73.58098073
386.00  73.55804868
387.00  73.53513972
388.00  73.51225375
389.00  73.48939067
390.00  73.46655039
391.00  73.44373279
392.00  73.42093779
393.00  73.39816528
394.00  73.37541518
395.00  73.35268739
396.00  73.32998180
397.00  73.30729833
398.00  73.28463689
399.00  73.26199737
400.00  73.23937969
401.00  73.21678376
402.00  73.19420948
403.00  73.17165676
404.00  73.14912552
405.00  73.12661565
406.00  73.10412708
407.00  73.08165972
408.00  73.05921347
409.00  73.03678825
410.00  73.01438397
411.00  72.99200054
412.00  72.96963789
413.00  72.94729591
414.00  72.92497454
415.00  72.90267368
416.00  72.88039325
417.00  72.85813317
418.00  72.83589335
419.00  72.81367371
420.00  72.79147417
421.00  72.76929465
422.00  72.74713507
423.00  72.72499534
424.00  72.70287539
425.00  72.68077514
426.00  72.65869450
427.00  72.63663341
428.00  72.61459177
429.00  72.59256952
430.00  72.57056657
431.00  72.54858286
432.00  72.52661830
433.00  72.50467281
434.00  72.48274633
435.00  72.46083877
436.00  72.43895007
437.00  72.41708014
438.00  72.39522892
439.00  72.37339633
440.00  72.35158230
441.00  72.32978675
442.00  72.30800962
443.00  72.28625083
444.00  72.26451031
445.00  72.24278799
446.00  72.22108380
447.00  72.19939767
448.00  72.17772953
449.00  72.15607931
450.00  72.13444695
451.00  72.11283236
452.00  72.09123549
453.00  72.06965627
454.00  72.04809463
455.00  72.02655050
456.00  72.00502382
457.00  71.98351452
458.00  71.96202253
459.00  71.94054780
460.00  71.91909024
461.00  71.89764981
462.00  71.87622643
463.00  71.85482004
464.00  71.83343057
465.00  71.81205797
466.00  71.79070217
467.00  71.76936311
468.00  71.74804072
469.00  71.72673495
470.00  71.70544572
471.00  71.68417299
472.00  71.66291668
473.00  71.64167674
474.00  71.62045311
475.00  71.59924573
476.00  71.57805454
477.00  71.55687947
478.00  71.53572047
479.00  71.51457748
480.00  71.49345044
481.00  71.47233930
482.00  71.45124399
483.00  71.43016446
484.00  71.40910065
485.00  71.38805250
486.00  71.36701996
487.00  71.34600297
488.00  71.32500148
489.00  71.30401542
490.00  71.28304474
491.00  71.26208939
492.00  71.24114931
493.00  71.22022445
494.00  71.19931475
495.00  71.17842016
496.00  71.15754063
497.00  71.13667610
498.00  71.11582651
499.00  71.09499182
500.00  71.07417197
501.00  71.05336691
502.00  71.03257658
503.00  71.01180094
504.00  70.99103993
505.00  70.97029351
506.00  70.94956161
507.00  70.92884419
508.00  70.90814121
509.00  70.88745259
510.00  70.86677831
511.00  70.84611830
512.00  70.82547252
513.00  70.80484092
514.00  70.78422345
515.00  70.76362005
516.00  70.74303069
517.00  70.72245531
518.00  70.70189386
519.00  70.68134629
520.00  70.66081257
521.00  70.64029263
522.00  70.61978644
523.00  70.59929394
524.00  70.57881509
525.00  70.55834984
526.00  70.53789815
527.00  70.51745996
528.00  70.49703524
529.00  70.47662394
530.00  70.45622600
531.00  70.43584139
532.00  70.41547006
533.00  70.39511196
534.00  70.37476706
535.00  70.35443530
536.00  70.33411664
537.00  70.31381104
538.00  70.29351845
539.00  70.27323883
540.00  70.25297214
541.00  70.23271833
542.00  70.21247735
543.00  70.19224918
544.00  70.17203375
545.00  70.15183104
546.00  70.13164100
547.00  70.11146358
548.00  70.09129874
549.00  70.07114645
550.00  70.05100666
551.00  70.03087932
552.00  70.01076441
553.00  69.99066187
554.00  69.97057166
555.00  69.95049376
556.00  69.93042810
557.00  69.91037466
558.00  69.89033339
559.00  69.87030426
560.00  69.85028722
561.00  69.83028224
562.00  69.81028927
563.00  69.79030828
564.00  69.77033922
565.00  69.75038207
566.00  69.73043677
567.00  69.71050329
568.00  69.69058159
569.00  69.67067163
570.00  69.65077339
571.00  69.63088681
572.00  69.61101185
573.00  69.59114850
574.00  69.57129669
575.00  69.55145641
576.00  69.53162760
577.00  69.51181024
578.00  69.49200428
579.00  69.47220969
580.00  69.45242644
581.00  69.43265449
582.00  69.41289379
583.00  69.39314432
584.00  69.37340604
585.00  69.35367891
586.00  69.33396290
587.00  69.31425798
588.00  69.29456410
589.00  69.27488123
590.00  69.25520934
591.00  69.23554839
592.00  69.21589835
593.00  69.19625918
594.00  69.17663085
595.00  69.15701333
596.00  69.13740657
597.00  69.11781055
598.00  69.09822524
599.00  69.07865059
600.00  69.05908658
601.00  69.03953317
602.00  69.01999032
603.00  69.00045802
604.00  68.98093622
605.00  68.96142488
606.00  68.94192398
607.00  68.92243349
608.00  68.90295337
609.00  68.88348359
610.00  68.86402412
611.00  68.84457492
612.00  68.82513596
613.00  68.80570722
614.00  68.78628865
615.00  68.76688024
616.00  68.74748194
617.00  68.72809373
618.00  68.70871557
619.00  68.68934743
620.00  68.66998929
621.00  68.65064111
622.00  68.63130286
623.00  68.61197451
624.00  68.59265603
625.00  68.57334739
626.00  68.55404855
627.00  68.53475950
628.00  68.51548020
629.00  68.49621062
630.00  68.47695072
631.00  68.45770049
632.00  68.43845989
633.00  68.41922889
634.00  68.40000746
635.00  68.38079558
636.00  68.36159320
637.00  68.34240032
638.00  68.32321689
639.00  68.30404288
640.00  68.28487828
641.00  68.26572304
642.00  68.24657715
643.00  68.22744057
644.00  68.20831328
645.00  68.18919524
646.00  68.17008644
647.00  68.15098683
648.00  68.13189640
649.00  68.11281512
650.00  68.09374296
651.00  68.07467988
652.00  68.05562587
653.00  68.03658090
654.00  68.01754494
655.00  67.99851796
656.00  67.97949993
657.00  67.96049084
658.00  67.94149064
659.00  67.92249933
660.00  67.90351686
661.00  67.88454321
662.00  67.86557836
663.00  67.84662228
664.00  67.82767495
665.00  67.80873633
666.00  67.78980641
667.00  67.77088515
668.00  67.75197253
669.00  67.73306853
670.00  67.71417312
671.00  67.69528627
672.00  67.67640796
673.00  67.65753816
674.00  67.63867685
675.00  67.61982401
676.00  67.60097960
677.00  67.58214360
678.00  67.56331600
679.00  67.54449675
680.00  67.52568585
681.00  67.50688326
682.00  67.48808896
683.00  67.46930293
684.00  67.45052513
685.00  67.43175556
686.00  67.41299417
687.00  67.39424096
688.00  67.37549589
689.00  67.35675894
690.00  67.33803009
691.00  67.31930931
692.00  67.30059659
693.00  67.28189189
694.00  67.26319519
695.00  67.24450647
696.00  67.22582571
697.00  67.20715288
698.00  67.18848796
699.00  67.16983093
700.00  67.15118176
701.00  67.13254044
702.00  67.11390693
703.00  67.09528122
704.00  67.07666328
705.00  67.05805309
706.00  67.03945063
707.00  67.02085587
708.00  67.00226880
709.00  66.98368939
710.00  66.96511762
711.00  66.94655346
712.00  66.92799690
713.00  66.90944791
714.00  66.89090647
715.00  66.87237256
716.00  66.85384616
717.00  66.83532725
718.00  66.81681580
719.00  66.79831179
720.00  66.77981520
721.00  66.76132601
722.00  66.74284420
723.00  66.72436975
724.00  66.70590263
725.00  66.68744283
726.00  66.66899032
727.00  66.65054509
728.00  66.63210710
729.00  66.61367635
730.00  66.59525281
731.00  66.57683646
732.00  66.55842728
733.00  66.54002525
734.00  66.52163034
735.00  66.50324254
736.00  66.48486184
737.00  66.46648819
738.00  66.44812160
739.00  66.42976203
740.00  66.41140947
741.00  66.39306390
742.00  66.37472529
743.00  66.35639363
744.00  66.33806890
745.00  66.31975107
746.00  66.30144013
747.00  66.28313606
748.00  66.26483884
749.00  66.24654845
750.00  66.22826487
751.00  66.20998808
752.00  66.19171806
753.00  66.17345479
754.00  66.15519826
755.00  66.13694843
756.00  66.11870531
757.00  66.10046886
758.00  66.08223906
759.00  66.06401590
760.00  66.04579936
761.00  66.02758942
762.00  66.00938607
763.00  65.99118927
764.00  65.97299902
765.00  65.95481530
766.00  65.93663808
767.00  65.91846735
768.00  65.90030309
769.00  65.88214528
770.00  65.86399391
771.00  65.84584895
772.00  65.82771039
773.00  65.80957821
774.00  65.79145240
775.00  65.77333292
776.00  65.75521977
777.00  65.73711293
778.00  65.71901238
779.00  65.70091810
780.00  65.68283007
781.00  65.66474828
782.00  65.64667271
783.00  65.62860334
784.00  65.61054016
785.00  65.59248314
786.00  65.57443228
787.00  65.55638754
788.00  65.53834892
789.00  65.52031640
790.00  65.50228996
791.00  65.48426958
792.00  65.46625525
793.00  65.44824695
794.00  65.43024465
795.00  65.41224836
796.00  65.39425804
797.00  65.37627369
798.00  65.35829528
799.00  65.34032280
800.00  65.32235623
801.00  65.30439555
802.00  65.28644076
803.00  65.26849183
804.00  65.25054874
805.00  65.23261148
806.00  65.21468003
807.00  65.19675438
808.00  65.17883451
809.00  65.16092041
810.00  65.14301205
811.00  65.12510942
812.00  65.10721251
813.00  65.08932130
814.00  65.07143577
815.00  65.05355591
816.00  65.03568171
817.00  65.01781313
818.00  64.99995018
819.00  64.98209283
820.00  64.96424108
821.00  64.94639489
822.00  64.92855426
823.00  64.91071917
824.00  64.89288961
825.00  64.87506556
826.00  64.85724701
827.00  64.83943393
828.00  64.82162632
829.00  64.80382416
830.00  64.78602743
831.00  64.76823612
832.00  64.75045022
833.00  64.73266970
834.00  64.71489455
835.00  64.69712477
836.00  64.67936033
837.00  64.66160121
838.00  64.64384741
839.00  64.62609891
840.00  64.60835569
841.00  64.59061774
842.00  64.57288504
843.00  64.55515758
844.00  64.53743535
845.00  64.51971833
846.00  64.50200650
847.00  64.48429985
848.00  64.46659837
849.00  64.44890204
850.00  64.43121085
851.00  64.41352478
852.00  64.39584382
853.00  64.37816795
854.00  64.36049716
855.00  64.34283144
856.00  64.32517077
857.00  64.30751513
858.00  64.28986452
859.00  64.27221892
860.00  64.25457831
861.00  64.23694269
862.00  64.21931203
863.00  64.20168632
864.00  64.18406556
865.00  64.16644971
866.00  64.14883878
867.00  64.13123275
868.00  64.11363160
869.00  64.09603532
870.00  64.07844390
871.00  64.06085731
872.00  64.04327556
873.00  64.02569863
874.00  64.00812649
875.00  63.99055914
876.00  63.97299657
877.00  63.95543876
878.00  63.93788570
879.00  63.92033737
880.00  63.90279377
881.00  63.88525487
882.00  63.86772066
883.00  63.85019114
884.00  63.83266629
885.00  63.81514609
886.00  63.79763053
887.00  63.78011960
888.00  63.76261329
889.00  63.74511158
890.00  63.72761446
891.00  63.71012192
892.00  63.69263394
893.00  63.67515052
894.00  63.65767163
895.00  63.64019726
896.00  63.62272741
897.00  63.60526206
898.00  63.58780119
899.00  63.57034480
900.00  63.55289287
901.00  63.53544539
902.00  63.51800235
903.00  63.50056373
904.00  63.48312952
905.00  63.46569971
906.00  63.44827429
907.00  63.43085324
908.00  63.41343655
909.00  63.39602421
910.00  63.37861620
911.00  63.36121253
912.00  63.34381316
913.00  63.32641809
914.00  63.30902731
915.00  63.29164081
916.00  63.27425857
917.00  63.25688058
918.00  63.23950683
919.00  63.22213730
920.00  63.20477199
921.00  63.18741089
922.00  63.17005397
923.00  63.15270123
924.00  63.13535266
925.00  63.11800825
926.00  63.10066797
927.00  63.08333183
928.00  63.06599981
929.00  63.04867189
930.00  63.03134807
931.00  63.01402834
932.00  62.99671268
933.00  62.97940107
934.00  62.96209352
935.00  62.94479000
936.00  62.92749051
937.00  62.91019504
938.00  62.89290356
939.00  62.87561608
940.00  62.85833258
941.00  62.84105304
942.00  62.82377746
943.00  62.80650583
944.00  62.78923813
945.00  62.77197435
946.00  62.75471449
947.00  62.73745852
948.00  62.72020644
949.00  62.70295824
950.00  62.68571391
951.00  62.66847343
952.00  62.65123680
953.00  62.63400399
954.00  62.61677501
955.00  62.59954984
956.00  62.58232847
957.00  62.56511089
958.00  62.54789708
959.00  62.53068704
960.00  62.51348076
961.00  62.49627822
962.00  62.47907941
963.00  62.46188433
964.00  62.44469295
965.00  62.42750528
966.00  62.41032130
967.00  62.39314100
968.00  62.37596436
969.00  62.35879139
970.00  62.34162206
971.00  62.32445636
972.00  62.30729430
973.00  62.29013584
974.00  62.27298099
975.00  62.25582974
976.00  62.23868207
977.00  62.22153797
978.00  62.20439743
979.00  62.18726044
980.00  62.17012700
981.00  62.15299708
982.00  62.13587069
983.00  62.11874780
984.00  62.10162842
985.00  62.08451252
986.00  62.06740010
987.00  62.05029115
988.00  62.03318566
989.00  62.01608361
990.00  61.99898501
991.00  61.98188983
992.00  61.96479806
993.00  61.94770971
994.00  61.93062475
995.00  61.91354317
996.00  61.89646497
997.00  61.87939014
998.00  61.86231867
